iter	Logloss
0	0.6726106714
1	0.6536873378
2	0.6368705387
3	0.6224114151
4	0.6062820275
5	0.5912576766
6	0.5784013153
7	0.5681627894
8	0.5568271109
9	0.5473199085
10	0.5390048321
11	0.5290505064
12	0.5186824271
13	0.5109000405
14	0.5041637905
15	0.4964416697
16	0.4897800742
17	0.4835495278
18	0.4761980789
19	0.4699378212
20	0.4645355941
21	0.4592476526
22	0.4535670782
23	0.448539837
24	0.4444390261
25	0.4409724672
26	0.436293714
27	0.4326012223
28	0.4292049969
29	0.4259092753
30	0.4235027522
31	0.4205615189
32	0.4175239795
33	0.4148114692
34	0.41203947
35	0.4095626718
36	0.4072832536
37	0.4047126841
38	0.4022724946
39	0.3996177486
40	0.39710688
41	0.3945232117
42	0.3924173892
43	0.3903276914
44	0.3883392186
45	0.3864767345
46	0.3846674547
47	0.3832308505
48	0.3817829439
49	0.3798084541
50	0.3781228871
51	0.3765553307
52	0.3745786015
53	0.3731853546
54	0.3712247404
55	0.3696249025
56	0.368479415
57	0.3672978523
58	0.3660517001
59	0.3642530244
60	0.362927904
61	0.3618363446
62	0.3607459747
63	0.3597631282
64	0.3584351325
65	0.3574390813
66	0.3562941105
67	0.3551767855
68	0.3541608659
69	0.3531992342
70	0.3523276137
71	0.3512450264
72	0.35002792
73	0.3492196488
74	0.3480067276
75	0.347185605
76	0.3461179173
77	0.3449630596
78	0.3439875193
79	0.3429880394
80	0.342315765
81	0.3415493889
82	0.3404438817
83	0.3396003904
84	0.3390694573
85	0.3382895455
86	0.3375500702
87	0.3364502968
88	0.3358299846
89	0.3349589013
90	0.334228926
91	0.333583042
92	0.332832806
93	0.3322433251
94	0.3315765912
95	0.3308924299
96	0.3300173409
97	0.3292727546
98	0.3286453809
99	0.3277941835
100	0.3270735526
101	0.3263850458
102	0.3259177511
103	0.3252260378
104	0.3244278746
105	0.3237775684
106	0.3231166142
107	0.3226990259
108	0.3221815308
109	0.3215259064
110	0.3208651529
111	0.3203864649
112	0.3199276635
113	0.3194949683
114	0.3191143614
115	0.3183408031
116	0.3176313183
117	0.317114109
118	0.3166081978
119	0.3157955472
120	0.31514718
121	0.3145000346
122	0.3139769533
123	0.3134649513
124	0.312953234
125	0.3124120226
126	0.3119705295
127	0.3112947889
128	0.3107082834
129	0.3101507538
130	0.3097868354
131	0.3094302215
132	0.3089919105
133	0.308535318
134	0.3080621211
135	0.3076465528
136	0.3070300196
137	0.3065816561
138	0.3061365461
139	0.3056603004
140	0.3050814647
141	0.3045819729
142	0.3039654863
143	0.3033773
144	0.3029665111
145	0.3025738006
146	0.3020928701
147	0.3017523324
148	0.3012121905
149	0.3007400151
150	0.3002319742
151	0.2998848624
152	0.2994012614
153	0.2988537802
154	0.2984958713
155	0.2980820553
156	0.2977780185
157	0.2973235925
158	0.2969608356
159	0.2966121326
160	0.2962648263
161	0.2957770938
162	0.2952580577
163	0.294660959
164	0.2942751672
165	0.2938816191
166	0.2935139961
167	0.2931511835
168	0.2927302697
169	0.2923606572
170	0.2921122911
171	0.2918340093
172	0.2915207915
173	0.291147139
174	0.2906556243
175	0.2902943712
176	0.2898592251
177	0.289598611
178	0.2892249107
179	0.2889127085
180	0.2884967702
181	0.2881472771
182	0.2879269054
183	0.2877480787
184	0.2874305214
185	0.2870802088
186	0.2866626768
187	0.2862672162
188	0.2860018572
189	0.2857204726
190	0.2853968702
191	0.2850691598
192	0.2847658335
193	0.284395176
194	0.2841591117
195	0.283792476
196	0.2834723101
197	0.2831046704
198	0.2827179769
199	0.2824659431
200	0.2821050446
201	0.2817362036
202	0.2813207785
203	0.2809302899
204	0.280743658
205	0.2804927939
206	0.2801185295
207	0.2798528851
208	0.2795185749
209	0.279207124
210	0.2789937989
211	0.2786671359
212	0.2783432949
213	0.2779488582
214	0.2776375833
215	0.2774078265
216	0.2770378502
217	0.2766724443
218	0.2762909218
219	0.276011301
220	0.2756786057
221	0.2754797469
222	0.2751473082
223	0.2748337202
224	0.2745309708
225	0.2742483215
226	0.2739224824
227	0.2736751297
228	0.2733637796
229	0.2730108299
230	0.2727440338
231	0.2723912569
232	0.2720846214
233	0.2718652199
234	0.2716853537
235	0.2715122412
236	0.2712897286
237	0.2709455434
238	0.2707157627
239	0.2704991344
240	0.2702751992
241	0.2700751358
242	0.269804399
243	0.2694399047
244	0.2692184097
245	0.2688951658
246	0.2686258699
247	0.2683606804
248	0.268110218
249	0.2677530439
250	0.2674672725
251	0.2671935992
252	0.2669164424
253	0.2666882095
254	0.2664999851
255	0.2663459986
256	0.2661846421
257	0.2659460077
258	0.2655601249
259	0.2652568257
260	0.2649066109
261	0.2646544469
262	0.264461004
263	0.264178472
264	0.2639636828
265	0.2638076786
266	0.2634764085
267	0.2632424658
268	0.2630078809
269	0.2626646561
270	0.2624803038
271	0.2623229075
272	0.2620563211
273	0.261842721
274	0.261549852
275	0.2613203631
276	0.261112746
277	0.260980026
278	0.2606523819
279	0.2604644837
280	0.2601429585
281	0.2598916207
282	0.2596943308
283	0.259476074
284	0.2592541341
285	0.285	0.27000286	0286	0.269606287	0287	0.269419288	0288	0.2692509678
289	0.26900290	290	0.2687507291	291	0.2684405871
292	0.2681609552
293	0.2678532703
294	0.2674994517
295	0.2671964933
296	0.2669021085
297	0.2668436852
298	0.2665386858
299	0.2663456546
300	0.2662096687
301	0.2660277859
302	0.265816895
303	0.2655522921
304	0.2652815202
305	0.2649748497
306	0.2647402728
307	0.2644741387
308	0.2640793576
309	0.2637790023
310	0.2634639351
311	0.2631924396
312	0.2629595448
313	0.2627415482
314	0.262556014
315	0.2623046175
316	0.2621211214
317	0.2617761883
318	0.2615056931
319	0.2612439931
320	0.2609478645
321	0.2606933599
322	0.2604006522
323	0.2602429863
324	0.2599233259
325	0.2597638473
326	0.2594600124
327	0.2592126582
328	0.2589236946
329	0.2586233747
330	0.2584457106
331	0.2580143914
332	0.2577278632
333	0.2574552991
334	0.2572187408
335	0.2569867156
336	0.2567579841
337	0.2565701219
338	0.2563041231
339	0.2559805327
340	0.2556636015
341	0.2555163866
342	0.255424601
343	0.2551042888
344	0.2548300928
345	0.2546452211
346	0.25437268
347	0.2540255234
348	0.2537088871
349	0.2534429942
350	0.2533457717
351	0.2530258566
352	0.2528047175
353	0.252518006
354	0.2522297936
355	0.2519136223
356	0.2516590054
357	0.2514822629
358	0.2512696257
359	0.2511652085
360	0.2509456247
361	0.2508129957
362	0.2505343063
363	0.2503300954
364	0.250113868
365	0.2499146165
366	0.2495994077
367	0.2492890405
368	0.2490909416
369	0.2488857289
370	0.2486803342
371	0.2484444844
372	0.2481352163
373	0.247953208
374	0.2476874241
375	0.247421809
376	0.2470924776
377	0.2468749018
378	0.2466115357
379	0.2464945491
380	0.24623971
381	0.2460068175
382	0.2458071961
383	0.245480627
384	0.2451371148
385	0.2449289916
386	0.2446180277
387	0.2444298684
388	0.2442566832
389	0.2440950936
390	0.243961443
391	0.2436937381
392	0.2434689676
393	0.243299676
394	0.2432088483
395	0.2429413551
396	0.2427013919
397	0.2425578473
398	0.2422867847
399	0.2420088773
400	0.2418164408
401	0.2415522124
402	0.2413176763
403	0.2411358764
404	0.2409436467
405	0.2407087498
406	0.2403518273
407	0.2400342817
408	0.2398796453
409	0.2395883052
410	0.2392744814
411	0.2390054717
412	0.2387559998
413	0.2386167636
414	0.2384423497
415	0.238265167
416	0.2379056577
417	0.2376622911
418	0.2373931821
419	0.2372079135
420	0.2370685418
421	0.2369017327
422	0.2368861279
423	0.2366633995
424	0.236475873
425	0.2363476716
426	0.2360888423
427	0.2357794018
428	0.2356194767
429	0.2354083044
430	0.2352208811
431	0.2349596774
432	0.234752007
433	0.2344417429
434	0.2342439306
435	0.2340165835
436	0.233853261
437	0.2337132981
438	0.2334971944
439	0.2334860907
440	0.2333491123
441	0.2330637787
442	0.2328849775
443	0.2326536855
444	0.2324093105
445	0.232192704
446	0.2319181936
447	0.2316637029
448	0.231481476
449	0.2312892954
450	0.2310436666
451	0.2307641056
452	0.2305459319
453	0.2303618101
454	0.2302286961
455	0.230043183
456	0.2297698774
457	0.2295740069
458	0.2293978677
459	0.2292035851
460	0.2290960093
461	0.2288733026
462	0.2286334928
463	0.2284166862
464	0.2282558166
465	0.2280992242
466	0.227869827
467	0.2276310208
468	0.2274739322
469	0.2272886128
470	0.227199531
471	0.2270270678
472	0.2268540847
473	0.2267347246
474	0.2265922673
475	0.2264014625
476	0.2262761557
477	0.2259792016
478	0.2257315223
479	0.2256119341
480	0.2254336046
481	0.225214008
482	0.2250787382
483	0.2249153234
484	0.2247531958
485	0.224524621
486	0.2243065046
487	0.2241644231
488	0.2239074312
489	0.223673329
490	0.2235061683
491	0.223356621
492	0.2232166783
493	0.223072956
494	0.2228723003
495	0.2226438773
496	0.222492398
497	0.2223085596
498	0.2220899107
499	0.2218850927
500	0.2216872874
501	0.221399452
502	0.2212723726
503	0.2210579256
504	0.2208425424
505	0.2206975969
506	0.2205779969
507	0.22034238
508	0.2202012027
509	0.2199657841
510	0.2197423737
511	0.2195820422
512	0.2192314556
513	0.2192028836
514	0.2190071441
515	0.2188424095
516	0.2186417017
517	0.2185064004
518	0.218397438
519	0.2182366829
520	0.2181119814
521	0.2179571167
522	0.2177743043
523	0.2176617094
524	0.2174440872
525	0.2173383736
526	0.2172121797
527	0.2170289696
528	0.2168480747
529	0.2166781619
530	0.2165111586
531	0.2163940732
532	0.2162166606
533	0.2159532146
534	0.2157859313
535	0.2156332062
536	0.2153184787
537	0.2151496864
538	0.2150076865
539	0.2147758775
540	0.2146590333
541	0.2145428248
542	0.2144147863
543	0.2142416936
544	0.2139912005
545	0.2138494549
546	0.2137363373
547	0.2135493349
548	0.2133856848
549	0.2132014105
550	0.2130371432
551	0.2128546109
552	0.2126090574
553	0.2124636531
554	0.2122824714
555	0.2120331909
556	0.2118566933
557	0.2117331361
558	0.2115161394
559	0.211350155
560	0.2111806193
561	0.210982015
562	0.2108802511
563	0.2107400503
564	0.2106003409
565	0.2104751588
566	0.2103532343
567	0.2101784481
568	0.2099981348
569	0.209697754
570	0.2095779435
571	0.2094328483
572	0.2092269868
573	0.2090488835
574	0.2089050774
575	0.2087218564
576	0.2085787642
577	0.2084062254
578	0.2083316347
579	0.2081812644
580	0.2079992275
581	0.2078446557
582	0.2076005122
583	0.2075205059
584	0.2073684296
585	0.2072242219
586	0.207062954
587	0.2068780763
588	0.2066463136
589	0.2064819316
590	0.2063695002
591	0.2062370557
592	0.2059992095
593	0.2058360304
594	0.2057114255
595	0.205507532
596	0.2053402451
597	0.2051912111
598	0.2049906367
599	0.2048285163
600	0.2047049578
601	0.2044785181
602	0.2042964596
603	0.2041341344
604	0.2039102185
605	0.2037372717
606	0.2036399916
607	0.2034821658
608	0.2032516869
609	0.2030721456
610	0.2029286708
611	0.2028049204
612	0.2026634086
613	0.2025256051
614	0.2023615518
615	0.2022577794
616	0.2021427205
617	0.2020489674
618	0.2019102847
619	0.2017913672
620	0.2016367127
621	0.2015769245
622	0.2014179934
623	0.2012790602
624	0.2010949841
625	0.2009189581
626	0.200776961
627	0.2006332766
628	0.200501318
629	0.2002950681
630	0.2001343116
631	0.1999621139
632	0.1998055738
633	0.1996213422
634	0.1994269034
635	0.1992704495
636	0.1991485223
637	0.198989418
638	0.1987856518
639	0.1986050049
640	0.1984499732
641	0.1983237954
642	0.1981585878
643	0.1980711053
644	0.1978745324
645	0.1977558241
646	0.197594935
647	0.197397144
648	0.1973060053
649	0.197162627
650	0.1970123135
651	0.1969045762
652	0.1967719897
653	0.1965988327
654	0.1964559743
655	0.1963167402
656	0.1961494306
657	0.1960354183
658	0.1959077238
659	0.1957499308
660	0.1956565125
661	0.195567159
662	0.1954226231
663	0.1952445628
664	0.195064856
665	0.1949404654
666	0.1947715975
667	0.1945692103
668	0.1944338201
669	0.1943026446
670	0.1942229007
671	0.1940325234
672	0.1938549363
673	0.1937011033
674	0.1935383138
675	0.1933908046
676	0.193182974
677	0.1930341646
678	0.1928787774
679	0.1927561977
680	0.1925964796
681	0.1924609243
682	0.192319897
683	0.1921356208
684	0.1920263465
685	0.191886747
686	0.1918087339
687	0.1917891338
688	0.1916676282
689	0.1915033431
690	0.1913814771
691	0.1912094265
692	0.1910423862
693	0.1909321091
694	0.190784173
695	0.1906228471
696	0.1904882443
697	0.190341088
698	0.1902235934
699	0.1900538785
700	0.1899531664
701	0.1898695189
702	0.1897939672
703	0.1895691477
704	0.1894134952
705	0.1892539011
706	0.1892495384
707	0.1891236646
708	0.1888563421
709	0.1886858044
710	0.1886214921
711	0.1884562657
712	0.1883037977
713	0.1881147665
714	0.1879729049
715	0.1878150172
716	0.1876332499
717	0.1874363118
718	0.1872820689
719	0.1871130077
720	0.1869623858
721	0.1868063749
722	0.1866855945
723	0.1865055159
724	0.1863973678
725	0.1861864483
726	0.1861813417
727	0.1860511493
728	0.185866727
729	0.1858625511
730	0.18577087
731	0.1855778758
732	0.1854773385
733	0.1853414675
734	0.1852115669
735	0.1850869673
736	0.1849929607
737	0.1848563967
738	0.1847357624
739	0.1846401285
740	0.1845671267
741	0.1844951025
742	0.1843515729
743	0.1842052469
744	0.1840687348
745	0.1839304108
746	0.1837759901
747	0.1835797845
748	0.1834146761
749	0.1833817944
750	0.1832297099
751	0.1831161054
752	0.1830057429
753	0.1830014678
754	0.1828743751
755	0.1827299061
756	0.1825929861
757	0.1824551584
758	0.182302235
759	0.1821933466
760	0.1821144993
761	0.1819785657
762	0.181832964
763	0.1816134874
764	0.181515335
765	0.1814094194
766	0.1812903422
767	0.1812863293
768	0.181207918
769	0.1810650606
770	0.1809532735
771	0.1808493689
772	0.1807338696
773	0.1806381764
774	0.1804937173
775	0.1803832673
776	0.1803091201
777	0.1802183628
778	0.1800925871
779	0.1799812961
780	0.1798331128
781	0.1797109114
782	0.1796183064
783	0.1793904515
784	0.1792309391
785	0.1791532177
786	0.1789729658
787	0.1788551919
788	0.1787982554
789	0.1787001059
790	0.1786236656
791	0.1784828156
792	0.178444459
793	0.1783454277
794	0.1782191772
795	0.1781360857
796	0.1780268107
797	0.1778587863
798	0.1777613888
799	0.1776257836
800	0.1775641173
801	0.1774333609
802	0.1773201894
803	0.1771862742
804	0.1770469718
805	0.1769390897
806	0.1768405859
807	0.1767260449
808	0.1765972013
809	0.1764306748
810	0.1763145829
811	0.1761140703
812	0.1759926453
813	0.1757922849
814	0.175667074
815	0.1755554813
816	0.1753731052
817	0.1752258234
818	0.1751076813
819	0.1750187063
820	0.1748921609
821	0.1747780806
822	0.174681255
823	0.1745662892
824	0.1744724057
825	0.1743656362
826	0.1742337864
827	0.1741168733
828	0.1739873727
829	0.1738343281
830	0.1737088852
831	0.1736095335
832	0.1734530798
833	0.1733255663
834	0.1733216108
835	0.1732451081
836	0.1731145107
837	0.1729790156
838	0.1728907186
839	0.1727767006
840	0.1726961361
841	0.1726184591
842	0.172500095
843	0.1723404833
844	0.1722058914
845	0.1720755096
846	0.1720060039
847	0.171927441
848	0.1717953549
849	0.1716437495
850	0.1715348733
851	0.1714255236
852	0.1712842026
853	0.1711703806
854	0.1710603413
855	0.1709254613
856	0.1708261151
857	0.1707090972
858	0.170636259
859	0.1705808254
860	0.170505281
861	0.1703392293
862	0.1702281611
863	0.1701602768
864	0.1700521473
865	0.1699157638
866	0.1698050992
867	0.1696166515
868	0.1695253491
869	0.1694988684
870	0.1693451042
871	0.1691641534
872	0.1690447396
873	0.1689504379
874	0.1688681223
875	0.1686958276
876	0.1685928509
877	0.1685906962
878	0.1685233225
879	0.1683685858
880	0.1682203751
881	0.1681583264
882	0.1681255379
883	0.1680284438
884	0.1679658502
885	0.1678785872
886	0.1677796782
887	0.1676180049
888	0.1674922172
889	0.1673647404
890	0.167223659
891	0.1671577057
892	0.1670440256
893	0.1669198646
894	0.1667663198
895	0.1666397375
896	0.1665043376
897	0.1663988731
898	0.166386705
899	0.1662799602
900	0.1661618188
901	0.1660415535
902	0.1659627905
903	0.1658710953
904	0.165754866
905	0.1656407836
906	0.1654897364
907	0.1654263737
908	0.1652942775
909	0.1651343862
910	0.1650666657
911	0.1649981647
912	0.164867775
913	0.1647364527
914	0.1646480048
915	0.1644847988
916	0.164392111
917	0.1642514913
918	0.1641244997
919	0.1640251195
920	0.1638784329
921	0.1638743455
922	0.1637742378
923	0.163615451
924	0.1635092034
925	0.163420945
926	0.1633010789
927	0.1632347416
928	0.1631000642
929	0.1630367202
930	0.1629971712
931	0.1628798423
932	0.1628240206
933	0.1627465857
934	0.1626551877
935	0.1624862128
936	0.1623780783
937	0.1622874034
938	0.1621939432
939	0.1620642947
940	0.1620119555
941	0.1619615876
942	0.1618351193
943	0.1617385821
944	0.1616276998
945	0.1615596111
946	0.1614565554
947	0.1613249624
948	0.1612070951
949	0.1610783524
950	0.1610141318
951	0.1609264972
952	0.1608084113
953	0.1606868921
954	0.160546227
955	0.1604198257
956	0.1603272996
957	0.1602554132
958	0.1601588452
959	0.1600705747
960	0.1599452003
961	0.1598690362
962	0.1597935118
963	0.1596559009
964	0.1596440603
965	0.1595022645
966	0.1593779381
967	0.1592561927
968	0.1590766874
969	0.1589877315
970	0.1588973863
971	0.1587247445
972	0.1586193128
973	0.1585212305
974	0.1583499004
975	0.1582400691
976	0.1580941721
977	0.1579718154
978	0.1579231322
979	0.1578147645
980	0.1578110664
981	0.1576973316
982	0.1576559816
983	0.1575502281
984	0.1574742628
985	0.1573923484
986	0.1572611401
987	0.1571626008
988	0.1571030284
989	0.1569789869
990	0.1568799728
991	0.1567725289
992	0.1566717769
993	0.1565773614
994	0.1564448121
995	0.156372952
996	0.1562681177
997	0.1561744252
998	0.1561177469
999	0.1559892429
	0.1434273422
